"Time (s)","Acceleration x (m/s^2)","Acceleration y (m/s^2)","Acceleration z (m/s^2)","Absolute acceleration (m/s^2)"
8.870318000E-3,-2.978386879E0,4.223371983E0,6.464344501E0,8.276195330E0
1.390563100E-2,-3.160346270E0,4.118026733E0,6.445190907E0,8.275652152E0
1.894094400E-2,-3.150769472E0,4.003105164E0,7.134721279E0,8.766780877E0
2.394574000E-2,-3.112462282E0,4.031835556E0,8.044517517E0,9.521416990E0
2.898105300E-2,-2.892195702E0,4.031835556E0,8.571242332E0,9.903872427E0
3.401636600E-2,-2.365471363E0,4.070142746E0,8.829815865E0,1.000635623E1
3.902116200E-2,-1.829170108E0,4.022258759E0,9.040505409E0,1.006256264E1
4.405647500E-2,-1.302445769E0,3.878606796E0,9.337387085E0,1.019444718E1
4.909178900E-2,-8.331822157E-1,3.773261786E0,1.008437729E1,1.079936861E1
5.412710100E-2,-4.022258818E-1,3.667917013E0,9.959878922E0,1.062142123E1
5.913189700E-2,-2.394201756E-1,3.533841610E0,1.086009884E1,1.142309526E1
6.416721000E-2,-2.873042040E-2,3.351882458E0,1.196143150E1,1.242222947E1
6.920252400E-2,3.064578176E-1,3.026270866E0,1.249773312E1,1.286256447E1
7.420731900E-2,7.948749661E-1,2.806004286E0,1.260307789E1,1.293611451E1
7.924263200E-2,1.130063176E0,2.499546528E0,1.223915863E1,1.254279792E1
8.427794500E-2,1.312022567E0,2.308010340E0,1.223915863E1,1.252379012E1
8.931325900E-2,1.331176162E0,2.240972757E0,1.225831223E1,1.253236640E1
9.431805400E-2,1.312022567E0,2.135627985E0,1.179862595E1,1.206191877E1
9.935336700E-2,1.158793569E0,2.078166962E0,1.183693314E1,1.207371387E1
1.043886800E-1,8.714894056E-1,2.039859772E0,1.140597725E1,1.161967464E1
1.094239940E-1,5.554547906E-1,1.944091797E0,1.075475407E1,1.094316033E1
1.144287890E-1,3.160346150E-1,2.135627985E0,9.768342972E0,1.000406463E1
1.194641020E-1,-8.619125932E-2,2.260126352E0,8.772355080E0,9.059239135E0
1.244994150E-1,-5.363011956E-1,2.260126352E0,8.494627953E0,8.806502947E0
1.295042110E-1,-8.427590132E-1,2.240972757E0,8.350975990E0,8.687404770E0
1.345395240E-1,-9.959878922E-1,2.384624958E0,7.958326340E0,8.367400206E0
1.395748370E-1,-8.906430602E-1,2.375048161E0,7.354987621E0,7.780099083E0
1.446101500E-1,-1.082179189E0,2.461239338E0,7.709329605E0,8.164715172E0
1.496149460E-1,-1.244984865E0,2.700659513E0,7.546523571E0,8.111323390E0
1.546502590E-1,-1.369483352E0,2.834734917E0,7.747636795E0,8.362839387E0
1.596855720E-1,-1.292868972E0,2.911349297E0,7.718906403E0,8.350388072E0
1.646903690E-1,-9.672574997E-1,2.930502892E0,7.431602001E0,8.046871602E0
1.697256810E-1,-6.895300746E-1,2.738966703E0,7.603984833E0,8.111595137E0
1.747609940E-1,-3.830722570E-1,2.451662540E0,8.312667847E0,8.675127682E0
1.797963070E-1,2.873042040E-2,2.049436569E0,8.389283180E0,8.636034273E0
1.848011040E-1,3.351882398E-1,1.446097851E0,8.743624687E0,8.868738513E0
1.898364160E-1,4.501099288E-1,1.005564690E0,9.011775017E0,9.078868225E0
1.948717290E-1,8.140285611E-1,8.619126081E-1,9.959878922E0,1.003019062E1
1.998765250E-1,1.101332784E0,1.101332784E0,9.892841339E0,1.001469808E1
2.049118380E-1,1.455674648E0,1.110909581E0,9.481039047E0,9.656252389E0
2.099471510E-1,1.618480325E0,1.465251446E0,9.442731857E0,9.691832917E0
2.149824640E-1,1.915361404E0,1.608903527E0,9.519346237E0,9.842516581E0
2.199872600E-1,2.011129379E0,1.963245392E0,9.270348549E0,9.687018946E0
2.250225730E-1,1.953668594E0,2.135627985E0,9.346963882E0,9.784858797E0
2.300578860E-1,1.599326730E0,2.346317768E0,9.404424667E0,9.823759788E0
2.350626820E-1,9.672574997E-1,2.432508945E0,9.088389397E0,9.457880770E0
2.400979950E-1,6.799532771E-1,2.758120298E0,8.973467827E0,9.412368930E0
2.451333080E-1,3.830722570E-1,2.901772499E0,8.427590370E0,8.921396048E0
2.501686210E-1,9.576806799E-3,2.911349297E0,6.742072105E0,7.343812546E0
2.551734170E-1,-1.340752989E-1,2.978386879E0,6.282385349E0,6.953929124E0
2.602087300E-1,-9.576806426E-2,3.016694069E0,6.540958881E0,7.203732207E0
2.652440430E-1,2.298433632E-1,3.035847664E0,6.473921299E0,7.154079675E0
2.702488390E-1,6.033388376E-1,3.102885485E0,6.148310184E0,6.913294020E0
2.752841520E-1,1.110909581E0,2.920926094E0,6.157886982E0,6.905468951E0
2.803194650E-1,1.426944256E0,2.892195702E0,6.540958881E0,7.292812144E0
2.853547780E-1,1.465251446E0,2.595314741E0,6.991068840E0,7.599846310E0
2.903595740E-1,1.513135433E0,2.164358377E0,6.933608055E0,7.419497738E0
2.953948870E-1,1.216254473E0,1.810016513E0,7.211335659E0,7.533843422E0
3.004302000E-1,1.063025594E0,1.570596337E0,7.163451672E0,7.410252096E0
3.054349960E-1,8.236053586E-1,1.436521053E0,7.603984833E0,7.782191456E0
3.104703090E-1,6.512228847E-1,1.417367458E0,7.852981567E0,8.006393773E0
3.155056220E-1,6.320692301E-1,1.484405041E0,7.862558365E0,8.026381120E0
3.205104180E-1,5.841852427E-1,1.656787634E0,7.766790390E0,7.962992567E0
3.255457310E-1,5.841852427E-1,1.934514999E0,7.795520782E0,8.053183529E0
3.305810440E-1,7.757213712E-1,2.221819162E0,7.556100368E0,7.914093556E0
3.355858400E-1,7.852981687E-1,2.346317768E0,7.661445618E0,8.051065099E0
3.406211530E-1,8.619126081E-1,2.432508945E0,7.900865555E0,8.311658657E0
3.456564660E-1,9.481038451E-1,2.528276920E0,7.929595947E0,8.376728298E0
3.506917790E-1,9.481038451E-1,2.384624958E0,7.747636795E0,8.161569273E0
3.556965750E-1,8.619126081E-1,2.106897593E0,7.575253963E0,7.909891492E0
3.607318880E-1,6.799532771E-1,1.790862918E0,7.163451672E0,7.415157874E0
3.657672010E-1,5.267243981E-1,1.321599364E0,6.703764915E0,6.853067015E0
3.708025140E-1,5.363011956E-1,1.024718285E0,6.598419666E0,6.699015497E0
3.758073100E-1,1.244984865E0,3.160346150E-1,5.497087002E0,5.645159936E0
3.808426230E-1,1.063025594E0,2.777273953E-1,6.301538944E0,6.396604489E0
3.858779360E-1,1.091755986E0,9.576806426E-2,6.713341713E0,6.802209906E0
3.908827320E-1,1.350329757E0,1.628057212E-1,6.588842869E0,6.727759397E0
3.959180450E-1,1.580173135E0,3.064578176E-1,6.493074894E0,6.689610236E0
4.009533580E-1,1.503558636E0,2.777273953E-1,6.780379295E0,6.950637702E0
4.059886710E-1,1.656787634E0,6.703764945E-2,6.818686485E0,7.017401563E0
4.109934670E-1,1.561019540E0,-8.619125932E-2,6.713341713E0,6.892979609E0
4.160287800E-1,1.426944256E0,-4.405331016E-1,5.832275391E0,6.020438153E0
4.210640930E-1,1.340752959E0,-5.841852427E-1,4.922478676E0,5.135142375E0
4.260994060E-1,9.672574997E-1,-7.661445141E-1,4.711789131E0,4.870679758E0
4.311042020E-1,6.129156351E-1,-7.086837292E-1,4.529829502E0,4.625716541E0
4.361395150E-1,4.118026793E-1,-7.374141216E-1,4.788403511E0,4.862321382E0
4.411748280E-1,3.543418646E-1,-6.895300746E-1,4.941632271E0,5.002073508E0
4.462101410E-1,4.118026793E-1,-4.884171486E-1,5.171475887E0,5.210786468E0
4.512149370E-1,4.501099288E-1,-5.075707436E-1,5.975927353E0,6.014310828E0
4.562502500E-1,3.926490843E-1,-3.351882398E-1,7.010222435E0,7.029206431E0
4.612855630E-1,6.991068721E-1,-1.244984865E-1,8.159439087E0,8.190280612E0
4.663208760E-1,9.576807022E-1,-4.788403213E-2,8.868123055E0,8.919812314E0
4.713256720E-1,1.235408068E0,-3.830722719E-2,9.212887764E0,9.295429064E0
4.763609850E-1,1.522712231E0,1.915361285E-1,9.691728592E0,9.812489069E0
4.813962980E-1,1.972822189E0,3.926490843E-1,9.950302124E0,1.015158673E1
4.864316110E-1,2.327163935E0,5.746083856E-1,1.008437729E1,1.036535248E1
4.914364080E-1,2.652775526E0,7.852981687E-1,1.025675964E1,1.062332479E1
4.964717200E-1,3.083731890E0,1.149216771E0,1.039083576E1,1.089952152E1
5.015070330E-1,3.485957623E0,1.493981838E0,1.075475407E1,1.140388606E1
5.065423460E-1,4.022258759E0,1.886630893E0,1.112824917E1,1.198231493E1
5.115776590E-1,4.338293552E0,2.365471363E0,1.132936287E1,1.236004485E1
5.165824550E-1,4.558559895E0,2.700659513E0,1.157835960E1,1.273312378E1
5.216177680E-1,4.558559895E0,2.959233284E0,1.180820274E1,1.299889157E1
5.266530810E-1,4.261679173E0,3.131615877E0,1.067813969E1,1.191602260E1
5.316578770E-1,3.552995205E0,3.141192675E0,9.260771751E0,1.040445865E1
5.366931900E-1,2.758120298E0,2.892195702E0,8.092401505E0,9.025463183E0
5.417285030E-1,2.442085743E0,3.026270866E0,7.738059998E0,8.660235023E0
5.467638160E-1,2.049436569E0,3.045424461E0,7.613561630E0,8.452284963E0
5.517686120E-1,1.714248419E0,2.806004286E0,7.479485989E0,8.170374431E0
5.568039250E-1,1.532289028E0,2.432508945E0,7.699752808E0,8.218953871E0
5.618392380E-1,1.216254473E0,2.011129379E0,8.025363922E0,8.362438783E0
5.668745510E-1,9.576807022E-1,1.465251446E0,8.571242332E0,8.748160335E0
5.718793470E-1,4.884171486E-1,9.864110947E-1,8.858546257E0,8.926667908E0
5.769146600E-1,9.576806799E-3,6.224924326E-1,9.404424667E0,9.425008852E0
5.819499730E-1,-7.182605267E-1,4.501099288E-1,1.044829655E1,1.048262362E1
5.869852860E-1,-1.321599364E0,1.244984865E-1,1.153047562E1,1.160663572E1
5.919900820E-1,-1.829170108E0,-9.576806799E-3,1.276588345E1,1.289626826E1
5.970253950E-1,-2.375048161E0,-3.926490843E-1,1.349372101E1,1.370676963E1
6.020607080E-1,-2.834734917E0,-7.757213712E-1,1.443224812E1,1.472845041E1
6.070960210E-1,-2.844311714E0,-1.235408068E0,1.516008472E1,1.547399467E1
6.121008170E-1,-2.873042107E0,-1.503558636E0,1.558146477E1,1.591531036E1
6.171361300E-1,-2.652775526E0,-1.608903527E0,1.573469353E1,1.603765472E1
6.221714430E-1,-2.528276920E0,-1.695094824E0,1.567723274E1,1.597000805E1
6.271762390E-1,-2.269703150E0,-1.656787634E0,1.538035202E1,1.563495206E1
6.322115520E-1,-1.762132406E0,-1.455674648E0,1.506431675E1,1.523672335E1
6.372468650E-1,-1.436521053E0,-1.398213744E0,1.444182491E1,1.458029153E1
6.422821780E-1,-1.206677675E0,-1.053448796E0,1.432690334E1,1.441617095E1
6.472869740E-1,-7.182605267E-1,-4.501099288E-1,1.432690334E1,1.435195654E1
6.523222870E-1,3.830722719E-2,4.405331016E-1,1.427901936E1,1.428586471E1
6.573576000E-1,6.512228847E-1,1.120486379E0,1.433648014E1,1.439493813E1
6.623623960E-1,1.608903527E0,1.800439715E0,1.333091545E1,1.354782125E1
6.673977090E-1,2.212242365E0,2.671929121E0,1.219127464E1,1.267518832E1
6.724330220E-1,2.882618904E0,3.763684988E0,1.073560047E1,1.173575451E1
6.774683350E-1,3.083731890E0,4.395754337E0,9.634267807E0,1.102955914E1
6.824731310E-1,2.499546528E0,4.405331135E0,1.023760605E1,1.142205117E1
6.875084440E-1,1.493981838E0,3.543418407E0,1.192312431E1,1.252791639E1
6.925437570E-1,4.979939461E-1,2.509123325E0,1.362779617E1,1.386580421E1
6.975485530E-1,-1.532289088E-1,1.264138460E0,1.527500725E1,1.532799307E1
7.025838660E-1,-7.757213712E-1,-9.576806426E-2,1.697010231E1,1.698809252E1
7.076191790E-1,-1.398213744E0,-1.561019540E0,1.880884933E1,1.892523704E1
7.126239750E-1,-2.068590164E0,-2.892195702E0,1.982398987E1,2.014036831E1
7.176592880E-1,-2.413355350E0,-3.811569214E0,2.004425621E1,2.054566988E1
7.226946010E-1,-2.308010340E0,-4.252102375E0,1.974737549E1,2.033140735E1
7.277299140E-1,-1.685518026E0,-4.194641590E0,1.910573006E1,1.963326030E1
7.327347100E-1,-9.672574997E-1,-3.744531393E0,1.809058762E1,1.849936385E1
7.377700230E-1,-1.244984865E-1,-2.901772499E0,1.682645035E1,1.707528081E1
7.428053360E-1,1.120486379E0,-1.790862918E0,1.539950562E1,1.554372712E1
7.478101320E-1,2.652775526E0,-8.044517636E-1,1.446097851E1,1.472427452E1
7.528454450E-1,4.271255970E0,-2.011129409E-1,1.391510010E1,1.455726914E1
7.578807580E-1,5.908889771E0,2.873041928E-1,1.337879944E1,1.462839008E1
7.629160720E-1,6.971915245E0,4.884171486E-1,1.267011547E1,1.446989909E1
7.679208670E-1,7.316680431E0,6.033388376E-1,1.204762268E1,1.410826150E1
7.729561800E-1,7.335834026E0,6.033388376E-1,1.172201157E1,1.384138843E1
7.779914930E-1,7.268796444E0,3.256114423E-1,1.179862595E1,1.386178195E1
7.829962890E-1,7.058106422E0,-1.819593310E-1,1.180820274E1,1.375803865E1
7.880316020E-1,6.052541733E0,-1.398213744E0,1.059194851E1,1.227915454E1
7.930669150E-1,5.995080948E0,-9.385270476E-1,1.170285797E1,1.318251544E1
7.981022280E-1,6.004657745E0,-4.979939461E-1,1.230619717E1,1.370205829E1
8.031070240E-1,5.947196960E0,-5.746084079E-2,1.289995861E1,1.420497749E1
8.081423370E-1,5.956773758E0,-3.830722719E-2,1.296699619E1,1.426981469E1
8.131776500E-1,6.406883717E0,-2.106897533E-1,1.283292103E1,1.434490890E1
8.182129630E-1,7.153874874E0,-1.340752989E-1,1.245942593E1,1.436778328E1
8.232177590E-1,7.259219646E0,-9.576806799E-3,1.262223148E1,1.456080661E1
8.282530720E-1,7.374141216E0,2.298433632E-1,1.216254425E1,1.422526869E1
8.332883850E-1,7.259219646E0,3.064578176E-1,1.183693314E1,1.388895865E1
8.382931800E-1,7.048529625E0,3.734954596E-1,1.124317074E1,1.327517069E1
8.433284940E-1,6.837840080E0,4.405331016E-1,1.042914295E1,1.247866776E1
8.483638070E-1,6.512228489E0,4.596867263E-1,9.758766174E0,1.174112214E1
8.533991200E-1,5.928043365E0,4.501099288E-1,8.925583839E0,1.072428757E1
8.584039160E-1,5.621585369E0,3.639186621E-1,8.370129585E0,1.008928779E1
8.634392290E-1,5.104437828E0,2.011129409E-1,8.331821442E0,9.773176581E0
8.684745420E-1,4.663905144E0,-9.576806799E-3,8.111555099E0,9.356785187E0
8.735098550E-1,4.414907932E0,-3.830722570E-1,7.747636795E0,8.925470985E0
8.785146510E-1,4.252102375E0,-5.746083856E-1,7.335834026E0,8.498529889E0
8.835499640E-1,4.108449936E0,-6.512228847E-1,7.019799232E0,8.159720178E0
8.885852770E-1,4.175487995E0,-3.447650373E-1,6.847416878E0,8.027495302E0
8.935900730E-1,4.338293552E0,-2.106897533E-1,8.006210327E0,9.108489717E0
8.986253860E-1,4.951209068E0,-4.118026793E-1,9.126696587E0,1.039137350E1
9.036606990E-1,4.223371983E0,-7.661445439E-2,5.793968201E0,7.170272532E0
9.086960120E-1,3.878606796E0,-2.585737705E-1,5.410895824E0,6.662450352E0
9.137008080E-1,3.754108191E0,-9.576806426E-2,4.884171486E0,6.160976459E0
9.187361210E-1,3.983951569E0,7.565677166E-1,4.558559895E0,6.101207514E0
9.237714340E-1,4.434061527E0,1.417367458E0,3.926490784E0,6.089922989E0
9.287762300E-1,5.439626217E0,1.953668594E0,2.920926094E0,6.475968160E0
9.338115430E-1,6.426037312E0,2.355894566E0,1.963245392E0,7.120289826E0
9.388468560E-1,7.134721279E0,2.537853718E0,1.551442742E0,7.729936857E0
9.438821690E-1,7.460332394E0,2.461239338E0,1.474828243E0,7.993083063E0
9.488869650E-1,7.603984833E0,2.231395960E0,1.312022567E0,8.032503749E0
9.539222780E-1,7.508216381E0,1.848323703E0,1.359906554E0,7.851048310E0
9.589575910E-1,7.144298077E0,1.532289028E0,1.455674648E0,7.450361961E0
9.639623870E-1,6.665457726E0,1.369483352E0,1.819593310E0,7.043772509E0
9.689977000E-1,6.368576527E0,1.225831270E0,2.212242365E0,6.852404363E0
9.740330130E-1,6.110002518E0,1.063025594E0,2.892195702E0,6.843022005E0
9.790683260E-1,5.985504150E0,8.331822157E-1,3.658340216E0,7.064269649E0
9.840731220E-1,5.995080948E0,4.979939461E-1,4.702212334E0,7.635430202E0
9.891084350E-1,6.177040577E0,1.819593310E-1,5.889736176E0,8.536857250E0
9.941437480E-1,6.588842869E0,-1.723825186E-1,6.617573261E0,9.339959419E0
9.991790610E-1,6.885724068E0,-4.309563041E-1,6.866570473E0,9.733894869E0
1.004183857E0,7.278373241E0,-7.374141216E-1,6.694188118E0,9.916181280E0
1.009219170E0,7.479485989E0,-9.768342972E-1,5.975927353E0,9.623337447E0
1.014254483E0,7.460332394E0,-1.283292055E0,4.865017891E0,8.998433030E0
1.019259279E0,7.105990410E0,-1.369483352E0,3.715801001E0,8.134971508E0
1.024294592E0,6.607996464E0,-1.302445769E0,2.461239338E0,7.170751796E0
1.029329905E0,6.368576527E0,-1.053448796E0,1.216254473E0,6.568698218E0
1.034365218E0,6.177040577E0,-7.182605267E-1,1.532289088E-1,6.220547208E0
1.039370014E0,5.841852188E0,-3.734954596E-1,-2.777273953E-1,5.860364183E0
1.044405327E0,5.343858242E0,-2.106897533E-1,1.915361360E-2,5.348044310E0
1.049440640E0,4.817133904E0,-2.777273953E-1,1.331176162E0,5.005391246E0
1.054445436E0,4.328716755E0,-8.140285611E-1,3.351882458E0,5.534938776E0
1.059480749E0,3.725377798E0,-1.551442742E0,5.544970989E0,6.857996617E0
1.064516062E0,3.055001259E0,-2.269703150E0,7.948749542E0,8.812899884E0
1.069551375E0,2.614468336E0,-2.882618904E0,1.014183807E1,1.086286408E1
1.074556171E0,2.518700123E0,-3.150769472E0,1.199016190E1,1.265050121E1
1.079591484E0,2.758120298E0,-3.150769472E0,1.338837624E1,1.402794333E1
1.084626797E0,3.284844637E0,-2.978386879E0,1.445140171E1,1.511634890E1
1.089662109E0,4.012681961E0,-2.767697096E0,1.486320400E1,1.564214170E1
1.094666906E0,4.568136692E0,-2.231395960E0,1.492066479E1,1.576303392E1
1.099702219E0,5.027823448E0,-1.589749932E0,1.430774975E1,1.524854145E1
1.104737532E0,5.458779812E0,-1.024718285E0,1.321599293E1,1.433564765E1
1.109742328E0,5.746084213E0,-2.873041928E-1,1.182735634E1,1.315242888E1
1.114777641E0,5.573701382E0,4.501099288E-1,1.011310768E1,1.155611064E1
1.119812954E0,5.114014626E0,1.120486379E0,8.437167168E0,9.929472550E0
1.124848267E0,4.328716755E0,1.714248419E0,7.201758862E0,8.575649660E0
1.129853063E0,3.265691042E0,2.011129379E0,6.358999729E0,7.426052580E0
1.134888376E0,2.422932148E0,2.116474390E0,5.631162167E0,6.485372108E0
1.139923689E0,1.723825216E0,1.982398987E0,5.018246651E0,5.664298594E0
1.144959002E0,1.235408068E0,1.781286120E0,4.654327869E0,5.134392004E0
1.149963798E0,9.959878922E-1,1.704671621E0,6.167463779E0,6.475763020E0
1.154999111E0,8.140285611E-1,1.848323703E0,7.479485989E0,7.747364304E0
1.160034424E0,8.810662031E-1,1.915361404E0,8.542511940E0,8.798829309E0
1.165069737E0,1.149216771E0,2.059013367E0,1.008437729E1,1.035639419E1
1.170074533E0,1.302445769E0,2.049436569E0,1.212423706E1,1.236501838E1
1.175109846E0,1.618480325E0,2.212242365E0,1.435563374E1,1.461498255E1
1.180145159E0,2.173935175E0,2.394201756E0,1.622311020E1,1.654229430E1
1.185149954E0,2.719813108E0,2.547430515E0,1.807143402E1,1.845165340E1
1.190185268E0,3.169923067E0,2.681505919E0,1.958456993E1,2.001984679E1
1.195220581E0,3.505111217E0,2.949656487E0,2.074336433E1,2.124319754E1
1.200255894E0,4.242525578E0,3.093308687E0,2.098278427E1,2.162972070E1
1.205260690E0,4.098873138E0,3.380612850E0,2.176808167E1,2.240711234E1
1.210296003E0,3.610456228E0,3.869029999E0,2.186384964E1,2.249517078E1
1.215331316E0,2.825158119E0,4.501099110E0,2.129881859E1,2.195179001E1
1.220336112E0,1.752555609E0,5.276820660E0,2.038902092E1,2.113358610E1
1.225371425E0,4.884171486E-1,5.861005783E0,1.911530685E1,1.999962240E1
1.230406738E0,-6.320692301E-1,6.033388138E0,1.781286049E1,1.881752595E1
1.235442051E0,-1.580173135E0,5.870582581E0,1.629014778E1,1.738762783E1
1.240446847E0,-2.422932148E0,5.382165432E0,1.452801609E1,1.568124856E1
1.245482160E0,-3.150769472E0,5.008669853E0,1.284249783E1,1.414015107E1
1.250517473E0,-3.562572241E0,4.970362663E0,1.129105568E1,1.284073068E1
1.255552786E0,-3.897760391E0,5.276820660E0,9.998186111E0,1.195830665E1
1.260557582E0,-3.974374771E0,5.765237808E0,9.002198219E0,1.140496359E1
1.265592895E0,-4.003105164E0,6.263231754E0,7.920019150E0,1.086184267E1
1.270628208E0,-3.955221176E0,6.646304131E0,7.058106422E0,1.047062555E1
1.275663521E0,-3.869029999E0,6.742072105E0,6.253654957E0,9.976629176E0
1.280668317E0,-3.888183594E0,6.646304131E0,5.765237808E0,9.619215001E0
1.285703630E0,-4.031835556E0,6.531382084E0,5.449203014E0,9.413206859E0
1.290738943E0,-4.194641590E0,6.473921299E0,4.903325081E0,9.140529082E0
1.295774256E0,-4.290409565E0,6.301538944E0,4.845864296E0,9.033239069E0
1.300779052E0,-4.319139957E0,6.062118530E0,5.276820660E0,9.124093781E0
1.305814365E0,-4.089296341E0,5.698200226E0,5.889736176E0,9.158647422E0
1.310849678E0,-3.983951569E0,5.200206280E0,6.856993675E0,9.483268303E0
1.315854474E0,-3.734954596E0,4.692635536E0,7.977479935E0,9.980526049E0
1.320889787E0,-3.256114244E0,4.127603531E0,9.097966194E0,1.050772952E1
1.325925100E0,-2.595314741E0,3.409343243E0,9.835380554E0,1.072818673E1
1.330960413E0,-1.877054095E0,2.528276920E0,1.048660374E1,1.094917231E1
1.335965209E0,-1.273715258E0,1.580173135E0,1.038125896E1,1.057779917E1
1.341000522E0,-6.320692301E-1,9.576807022E-1,1.022802925E1,1.029219346E1
1.346035835E0,6.895300746E-1,7.278373241E-1,9.653421402E0,9.705346138E0
1.351071148E0,2.106897593E0,6.224924326E-1,9.107542992E0,9.368770124E0
1.356075944E0,3.447650433E0,9.959878922E-1,8.676587105E0,9.389432846E0
1.361111257E0,4.510675907E0,1.532289028E0,8.686163902E0,9.906742661E0
1.366146570E0,5.305551052E0,1.972822189E0,8.983044624E0,1.061772057E1
1.371181883E0,6.081272125E0,2.164358377E0,9.414001465E0,1.141445318E1
1.376186679E0,6.751648903E0,2.020706177E0,9.979032516E0,1.221675515E1
1.381221992E0,7.632715225E0,1.695094824E0,1.131978607E1,1.375751594E1
1.386257305E0,8.724471092E0,1.513135433E0,1.304361057E1,1.576520699E1
1.391292618E0,9.950302124E0,1.283292055E0,1.474828243E1,1.783724153E1
